theta	FPR	TPR
0.1	0.335	0.91
0.15	0.245	0.865
0.2	0.185	0.845
0.25	0.17	0.83
0.3	0.145	0.815
0.35	0.12	0.8
0.4	0.11	0.78
0.45	0.1	0.765
0.5	0.1	0.745
0.55	0.09	0.72
0.6	0.08	0.695
0.65	0.075	0.68
0.7	0.07	0.665
0.75	0.065	0.65
0.8	0.06	0.635
0.85	0.06	0.635
0.9	0.05	0.62
0.95	0.045	0.61
