theta	FPR	TPR
0.1	0.69	0.985
0.15	0.63	0.98
0.2	0.565	0.97
0.25	0.55	0.965
0.3	0.525	0.965
0.35	0.51	0.96
0.4	0.495	0.96
0.45	0.465	0.945
0.5	0.425	0.93
0.55	0.4	0.93
0.6	0.37	0.92
0.65	0.36	0.915
0.7	0.345	0.9
0.75	0.34	0.885
0.8	0.335	0.87
0.85	0.32	0.865
0.9	0.305	0.865
0.95	0.285	0.86
